##TITLE=UNKNOWN
##JCAMP-DX=4.24
##DATA TYPE=INFRARED SPECTRUM
##CLASS=CHEM 3020 CORNELL UNIVERSITY
##OWNER=STUDENT
##XUNITS=1/CM
##YUNITS=% Transmittance
##XFACTOR=1
##YFACTOR=1
##FIRSTX=600.00000000
##LASTX=4000.00000000
##NPOINTS=1765
##FIRSTY=103.00000000
##XYDATA=(XY)
600.00000000 103.00000000
602.00000000 104.00000000
604.00000000 105.00000000
606.00000000 105.00000000
607.00000000 104.00000000
609.00000000 101.00000000
611.00000000 101.00000000
613.00000000 101.00000000
615.00000000 99.90000000
617.00000000 100.00000000
619.00000000 102.00000000
621.00000000 102.00000000
623.00000000 105.00000000
625.00000000 108.00000000
627.00000000 110.00000000
629.00000000 101.00000000
631.00000000 96.40000000
633.00000000 101.00000000
634.00000000 101.00000000
636.00000000 96.60000000
638.00000000 97.90000000
640.00000000 93.70000000
642.00000000 87.80000000
644.00000000 97.10000000
646.00000000 108.00000000
648.00000000 105.00000000
650.00000000 100.00000000
652.00000000 96.70000000
654.00000000 99.80000000
656.00000000 106.00000000
658.00000000 109.00000000
660.00000000 103.00000000
661.00000000 98.50000000
663.00000000 99.40000000
665.00000000 98.50000000
667.00000000 94.20000000
669.00000000 93.60000000
671.00000000 97.60000000
673.00000000 98.80000000
675.00000000 99.00000000
677.00000000 99.20000000
679.00000000 98.60000000
681.00000000 99.70000000
683.00000000 100.00000000
685.00000000 98.80000000
687.00000000 98.20000000
688.00000000 98.50000000
690.00000000 98.40000000
692.00000000 97.90000000
694.00000000 98.30000000
696.00000000 98.80000000
698.00000000 99.10000000
700.00000000 99.30000000
702.00000000 99.40000000
704.00000000 99.40000000
706.00000000 99.30000000
708.00000000 99.00000000
710.00000000 99.00000000
712.00000000 98.80000000
714.00000000 98.50000000
715.00000000 98.50000000
717.00000000 98.80000000
719.00000000 99.20000000
721.00000000 99.20000000
723.00000000 98.90000000
725.00000000 98.60000000
727.00000000 98.90000000
729.00000000 99.30000000
731.00000000 99.10000000
733.00000000 98.80000000
735.00000000 98.90000000
737.00000000 98.80000000
739.00000000 98.80000000
741.00000000 99.00000000
742.00000000 98.70000000
744.00000000 98.40000000
746.00000000 98.60000000
748.00000000 98.60000000
750.00000000 98.80000000
752.00000000 98.90000000
754.00000000 99.00000000
756.00000000 99.10000000
758.00000000 98.80000000
760.00000000 98.60000000
762.00000000 98.80000000
764.00000000 98.90000000
766.00000000 98.80000000
768.00000000 98.70000000
769.00000000 98.70000000
771.00000000 98.60000000
773.00000000 98.60000000
775.00000000 98.80000000
777.00000000 99.10000000
779.00000000 99.30000000
781.00000000 99.00000000
783.00000000 98.90000000
785.00000000 99.00000000
787.00000000 99.10000000
789.00000000 99.10000000
791.00000000 99.10000000
793.00000000 99.00000000
795.00000000 98.90000000
796.00000000 98.80000000
798.00000000 98.60000000
800.00000000 98.50000000
802.00000000 98.60000000
804.00000000 98.80000000
806.00000000 98.60000000
808.00000000 98.60000000
810.00000000 98.80000000
812.00000000 98.90000000
814.00000000 99.00000000
816.00000000 98.90000000
818.00000000 98.80000000
820.00000000 98.70000000
822.00000000 98.70000000
823.00000000 98.40000000
825.00000000 98.40000000
827.00000000 98.80000000
829.00000000 98.80000000
831.00000000 98.80000000
833.00000000 98.60000000
835.00000000 98.50000000
837.00000000 98.50000000
839.00000000 98.70000000
841.00000000 98.70000000
843.00000000 98.70000000
845.00000000 98.80000000
847.00000000 99.00000000
849.00000000 99.10000000
850.00000000 99.00000000
852.00000000 98.80000000
854.00000000 98.80000000
856.00000000 98.70000000
858.00000000 98.70000000
860.00000000 98.80000000
862.00000000 98.90000000
864.00000000 99.10000000
866.00000000 99.20000000
868.00000000 99.10000000
870.00000000 99.00000000
872.00000000 99.00000000
874.00000000 99.00000000
876.00000000 99.00000000
877.00000000 99.00000000
879.00000000 99.00000000
881.00000000 99.00000000
883.00000000 99.00000000
885.00000000 99.00000000
887.00000000 99.00000000
889.00000000 99.10000000
891.00000000 99.20000000
893.00000000 99.20000000
895.00000000 99.20000000
897.00000000 99.00000000
899.00000000 99.00000000
901.00000000 99.00000000
903.00000000 99.10000000
904.00000000 99.20000000
906.00000000 99.20000000
908.00000000 99.20000000
910.00000000 99.20000000
912.00000000 99.20000000
914.00000000 99.20000000
916.00000000 99.30000000
918.00000000 99.30000000
920.00000000 99.30000000
922.00000000 99.30000000
924.00000000 99.30000000
926.00000000 99.30000000
928.00000000 99.30000000
930.00000000 99.40000000
931.00000000 99.30000000
933.00000000 99.40000000
935.00000000 99.40000000
937.00000000 99.20000000
939.00000000 99.20000000
941.00000000 99.30000000
943.00000000 99.40000000
945.00000000 99.30000000
947.00000000 99.30000000
949.00000000 99.40000000
951.00000000 99.40000000
953.00000000 99.40000000
955.00000000 99.40000000
957.00000000 99.30000000
958.00000000 99.30000000
960.00000000 99.30000000
962.00000000 99.30000000
964.00000000 99.20000000
966.00000000 99.20000000
968.00000000 99.10000000
970.00000000 98.90000000
972.00000000 98.80000000
974.00000000 98.80000000
976.00000000 99.00000000
978.00000000 99.10000000
980.00000000 99.20000000
982.00000000 99.30000000
984.00000000 99.30000000
985.00000000 99.20000000
987.00000000 99.20000000
989.00000000 99.20000000
991.00000000 99.10000000
993.00000000 99.10000000
995.00000000 99.00000000
997.00000000 98.80000000
999.00000000 98.80000000
1000.00000000 98.90000000
1000.00000000 99.00000000
1000.00000000 99.10000000
1010.00000000 99.10000000
1010.00000000 99.10000000
1010.00000000 99.10000000
1010.00000000 99.10000000
1010.00000000 99.10000000
1020.00000000 99.10000000
1020.00000000 99.10000000
1020.00000000 99.20000000
1020.00000000 99.30000000
1020.00000000 99.30000000
1030.00000000 99.20000000
1030.00000000 99.10000000
1030.00000000 99.10000000
1030.00000000 99.10000000
1030.00000000 99.10000000
1040.00000000 99.10000000
1040.00000000 99.10000000
1040.00000000 99.20000000
1040.00000000 99.20000000
1040.00000000 99.20000000
1050.00000000 99.20000000
1050.00000000 99.10000000
1050.00000000 99.10000000
1050.00000000 99.10000000
1050.00000000 99.20000000
1050.00000000 99.30000000
1060.00000000 99.20000000
1060.00000000 99.10000000
1060.00000000 99.20000000
1060.00000000 99.20000000
1060.00000000 99.20000000
1070.00000000 99.20000000
1070.00000000 99.20000000
1070.00000000 99.20000000
1070.00000000 99.30000000
1070.00000000 99.30000000
1080.00000000 99.20000000
1080.00000000 99.30000000
1080.00000000 99.30000000
1080.00000000 99.30000000
1080.00000000 99.30000000
1090.00000000 99.30000000
1090.00000000 99.30000000
1090.00000000 99.20000000
1090.00000000 99.30000000
1090.00000000 99.30000000
1100.00000000 99.20000000
1100.00000000 99.10000000
1100.00000000 99.20000000
1100.00000000 99.20000000
1100.00000000 99.10000000
1110.00000000 99.10000000
1110.00000000 99.20000000
1110.00000000 99.20000000
1110.00000000 99.20000000
1110.00000000 99.30000000
1110.00000000 99.30000000
1120.00000000 99.20000000
1120.00000000 99.20000000
1120.00000000 99.20000000
1120.00000000 99.20000000
1120.00000000 99.20000000
1130.00000000 99.20000000
1130.00000000 99.20000000
1130.00000000 99.20000000
1130.00000000 99.20000000
1130.00000000 99.20000000
1140.00000000 99.20000000
1140.00000000 99.20000000
1140.00000000 99.20000000
1140.00000000 99.20000000
1140.00000000 99.20000000
1150.00000000 99.20000000
1150.00000000 99.10000000
1150.00000000 99.00000000
1150.00000000 99.00000000
1150.00000000 99.00000000
1160.00000000 99.00000000
1160.00000000 99.00000000
1160.00000000 98.90000000
1160.00000000 98.90000000
1160.00000000 98.90000000
1160.00000000 98.80000000
1170.00000000 98.80000000
1170.00000000 98.90000000
1170.00000000 99.00000000
1170.00000000 99.10000000
1170.00000000 99.20000000
1180.00000000 99.20000000
1180.00000000 99.30000000
1180.00000000 99.30000000
1180.00000000 99.40000000
1180.00000000 99.40000000
1190.00000000 99.40000000
1190.00000000 99.40000000
1190.00000000 99.40000000
1190.00000000 99.40000000
1190.00000000 99.40000000
1200.00000000 99.40000000
1200.00000000 99.40000000
1200.00000000 99.40000000
1200.00000000 99.40000000
1200.00000000 99.40000000
1210.00000000 99.40000000
1210.00000000 99.40000000
1210.00000000 99.40000000
1210.00000000 99.40000000
1210.00000000 99.40000000
1210.00000000 99.40000000
1220.00000000 99.30000000
1220.00000000 99.30000000
1220.00000000 99.30000000
1220.00000000 99.40000000
1220.00000000 99.40000000
1230.00000000 99.40000000
1230.00000000 99.30000000
1230.00000000 99.30000000
1230.00000000 99.30000000
1230.00000000 99.30000000
1240.00000000 99.30000000
1240.00000000 99.30000000
1240.00000000 99.30000000
1240.00000000 99.30000000
1240.00000000 99.30000000
1250.00000000 99.30000000
1250.00000000 99.30000000
1250.00000000 99.30000000
1250.00000000 99.30000000
1250.00000000 99.30000000
1260.00000000 99.30000000
1260.00000000 99.30000000
1260.00000000 99.30000000
1260.00000000 99.30000000
1260.00000000 99.30000000
1270.00000000 99.30000000
1270.00000000 99.30000000
1270.00000000 99.20000000
1270.00000000 99.20000000
1270.00000000 99.20000000
1270.00000000 99.30000000
1280.00000000 99.30000000
1280.00000000 99.20000000
1280.00000000 99.20000000
1280.00000000 99.30000000
1280.00000000 99.30000000
1290.00000000 99.20000000
1290.00000000 99.20000000
1290.00000000 99.20000000
1290.00000000 99.20000000
1290.00000000 99.20000000
1300.00000000 99.20000000
1300.00000000 99.20000000
1300.00000000 99.20000000
1300.00000000 99.10000000
1300.00000000 99.10000000
1310.00000000 99.20000000
1310.00000000 99.20000000
1310.00000000 99.20000000
1310.00000000 99.20000000
1310.00000000 99.20000000
1320.00000000 99.20000000
1320.00000000 99.10000000
1320.00000000 99.10000000
1320.00000000 99.10000000
1320.00000000 99.20000000
1320.00000000 99.20000000
1330.00000000 99.20000000
1330.00000000 99.20000000
1330.00000000 99.20000000
1330.00000000 99.20000000
1330.00000000 99.10000000
1340.00000000 99.00000000
1340.00000000 98.90000000
1340.00000000 99.00000000
1340.00000000 99.10000000
1340.00000000 99.10000000
1350.00000000 99.10000000
1350.00000000 99.10000000
1350.00000000 99.00000000
1350.00000000 99.00000000
1350.00000000 98.90000000
1360.00000000 98.80000000
1360.00000000 98.60000000
1360.00000000 98.50000000
1360.00000000 98.50000000
1360.00000000 98.50000000
1370.00000000 98.60000000
1370.00000000 98.60000000
1370.00000000 98.30000000
1370.00000000 97.80000000
1370.00000000 96.90000000
1380.00000000 95.90000000
1380.00000000 95.90000000
1380.00000000 96.60000000
1380.00000000 97.40000000
1380.00000000 98.00000000
1380.00000000 98.40000000
1390.00000000 98.60000000
1390.00000000 98.80000000
1390.00000000 98.90000000
1390.00000000 98.90000000
1390.00000000 98.80000000
1400.00000000 98.80000000
1400.00000000 98.80000000
1400.00000000 98.90000000
1400.00000000 98.90000000
1400.00000000 98.90000000
1410.00000000 98.90000000
1410.00000000 98.90000000
1410.00000000 98.90000000
1410.00000000 98.90000000
1410.00000000 98.90000000
1420.00000000 98.90000000
1420.00000000 98.70000000
1420.00000000 98.60000000
1420.00000000 98.80000000
1420.00000000 98.80000000
1430.00000000 98.90000000
1430.00000000 98.90000000
1430.00000000 98.80000000
1430.00000000 98.70000000
1430.00000000 98.70000000
1430.00000000 98.50000000
1440.00000000 98.30000000
1440.00000000 98.40000000
1440.00000000 98.40000000
1440.00000000 98.40000000
1440.00000000 98.20000000
1450.00000000 97.90000000
1450.00000000 97.60000000
1450.00000000 97.40000000
1450.00000000 97.20000000
1450.00000000 97.00000000
1460.00000000 96.60000000
1460.00000000 96.50000000
1460.00000000 96.80000000
1460.00000000 97.10000000
1460.00000000 97.10000000
1470.00000000 97.50000000
1470.00000000 97.90000000
1470.00000000 98.20000000
1470.00000000 98.20000000
1470.00000000 98.30000000
1480.00000000 98.60000000
1480.00000000 98.90000000
1480.00000000 99.10000000
1480.00000000 99.10000000
1480.00000000 99.20000000
1480.00000000 99.10000000
1490.00000000 99.00000000
1490.00000000 98.80000000
1490.00000000 98.90000000
1490.00000000 99.10000000
1490.00000000 99.10000000
1500.00000000 99.00000000
1500.00000000 99.00000000
1500.00000000 99.10000000
1500.00000000 99.20000000
1500.00000000 99.00000000
1510.00000000 98.40000000
1510.00000000 98.50000000
1510.00000000 98.90000000
1510.00000000 99.10000000
1510.00000000 99.10000000
1520.00000000 98.90000000
1520.00000000 98.80000000
1520.00000000 98.70000000
1520.00000000 98.60000000
1520.00000000 98.80000000
1530.00000000 98.80000000
1530.00000000 98.90000000
1530.00000000 99.00000000
1530.00000000 99.00000000
1530.00000000 98.80000000
1540.00000000 98.90000000
1540.00000000 98.90000000
1540.00000000 98.50000000
1540.00000000 98.20000000
1540.00000000 98.40000000
1540.00000000 98.70000000
1550.00000000 99.00000000
1550.00000000 99.00000000
1550.00000000 98.90000000
1550.00000000 98.90000000
1550.00000000 98.80000000
1560.00000000 98.60000000
1560.00000000 98.20000000
1560.00000000 98.50000000
1560.00000000 98.90000000
1560.00000000 98.90000000
1570.00000000 98.90000000
1570.00000000 98.80000000
1570.00000000 98.70000000
1570.00000000 98.90000000
1570.00000000 98.90000000
1580.00000000 98.80000000
1580.00000000 98.80000000
1580.00000000 99.00000000
1580.00000000 99.10000000
1580.00000000 99.10000000
1590.00000000 99.10000000
1590.00000000 99.10000000
1590.00000000 99.10000000
1590.00000000 99.00000000
1590.00000000 99.00000000
1590.00000000 99.00000000
1600.00000000 99.00000000
1600.00000000 99.10000000
1600.00000000 99.00000000
1600.00000000 99.00000000
1600.00000000 99.00000000
1610.00000000 99.00000000
1610.00000000 99.00000000
1610.00000000 99.00000000
1610.00000000 99.00000000
1610.00000000 98.90000000
1620.00000000 98.80000000
1620.00000000 98.80000000
1620.00000000 98.90000000
1620.00000000 98.80000000
1620.00000000 98.70000000
1630.00000000 98.80000000
1630.00000000 98.80000000
1630.00000000 98.80000000
1630.00000000 98.90000000
1630.00000000 98.70000000
1640.00000000 98.40000000
1640.00000000 98.50000000
1640.00000000 98.70000000
1640.00000000 98.80000000
1640.00000000 98.70000000
1650.00000000 98.50000000
1650.00000000 98.20000000
1650.00000000 98.50000000
1650.00000000 98.50000000
1650.00000000 98.20000000
1650.00000000 98.40000000
1660.00000000 98.80000000
1660.00000000 98.90000000
1660.00000000 98.90000000
1660.00000000 98.80000000
1660.00000000 98.80000000
1670.00000000 98.90000000
1670.00000000 98.70000000
1670.00000000 98.70000000
1670.00000000 98.80000000
1670.00000000 98.80000000
1680.00000000 98.90000000
1680.00000000 99.00000000
1680.00000000 98.90000000
1680.00000000 98.80000000
1680.00000000 98.50000000
1690.00000000 98.80000000
1690.00000000 99.00000000
1690.00000000 99.10000000
1690.00000000 99.20000000
1690.00000000 99.20000000
1700.00000000 98.90000000
1700.00000000 98.80000000
1700.00000000 98.80000000
1700.00000000 98.90000000
1700.00000000 99.10000000
1700.00000000 99.10000000
1710.00000000 99.10000000
1710.00000000 99.30000000
1710.00000000 99.40000000
1710.00000000 99.30000000
1710.00000000 99.10000000
1720.00000000 98.90000000
1720.00000000 99.00000000
1720.00000000 99.30000000
1720.00000000 99.40000000
1720.00000000 99.40000000
1730.00000000 99.40000000
1730.00000000 99.40000000
1730.00000000 99.20000000
1730.00000000 99.10000000
1730.00000000 99.00000000
1740.00000000 99.20000000
1740.00000000 99.30000000
1740.00000000 99.20000000
1740.00000000 99.20000000
1740.00000000 99.20000000
1750.00000000 99.20000000
1750.00000000 99.10000000
1750.00000000 99.00000000
1750.00000000 99.20000000
1750.00000000 99.40000000
1750.00000000 99.50000000
1760.00000000 99.40000000
1760.00000000 99.50000000
1760.00000000 99.40000000
1760.00000000 99.40000000
1760.00000000 99.60000000
1770.00000000 99.50000000
1770.00000000 99.40000000
1770.00000000 99.30000000
1770.00000000 99.20000000
1770.00000000 99.40000000
1780.00000000 99.50000000
1780.00000000 99.50000000
1780.00000000 99.50000000
1780.00000000 99.50000000
1780.00000000 99.60000000
1790.00000000 99.60000000
1790.00000000 99.60000000
1790.00000000 99.50000000
1790.00000000 99.30000000
1790.00000000 99.40000000
1800.00000000 99.50000000
1800.00000000 99.50000000
1800.00000000 99.50000000
1800.00000000 99.50000000
1800.00000000 99.60000000
1810.00000000 99.60000000
1810.00000000 99.60000000
1810.00000000 99.60000000
1810.00000000 99.50000000
1810.00000000 99.60000000
1810.00000000 99.60000000
1820.00000000 99.60000000
1820.00000000 99.60000000
1820.00000000 99.60000000
1820.00000000 99.60000000
1820.00000000 99.50000000
1830.00000000 99.50000000
1830.00000000 99.40000000
1830.00000000 99.40000000
1830.00000000 99.60000000
1830.00000000 99.60000000
1840.00000000 99.60000000
1840.00000000 99.60000000
1840.00000000 99.60000000
1840.00000000 99.60000000
1840.00000000 99.50000000
1850.00000000 99.50000000
1850.00000000 99.60000000
1850.00000000 99.60000000
1850.00000000 99.60000000
1850.00000000 99.60000000
1860.00000000 99.70000000
1860.00000000 99.60000000
1860.00000000 99.60000000
1860.00000000 99.60000000
1860.00000000 99.60000000
1860.00000000 99.60000000
1870.00000000 99.50000000
1870.00000000 99.40000000
1870.00000000 99.50000000
1870.00000000 99.70000000
1870.00000000 99.70000000
1880.00000000 99.70000000
1880.00000000 99.70000000
1880.00000000 99.70000000
1880.00000000 99.70000000
1880.00000000 99.60000000
1890.00000000 99.60000000
1890.00000000 99.60000000
1890.00000000 99.60000000
1890.00000000 99.60000000
1890.00000000 99.60000000
1900.00000000 99.60000000
1900.00000000 99.60000000
1900.00000000 99.60000000
1900.00000000 99.60000000
1900.00000000 99.60000000
1910.00000000 99.70000000
1910.00000000 99.60000000
1910.00000000 99.60000000
1910.00000000 99.60000000
1910.00000000 99.70000000
1920.00000000 99.60000000
1920.00000000 99.60000000
1920.00000000 99.60000000
1920.00000000 99.60000000
1920.00000000 99.50000000
1920.00000000 99.60000000
1930.00000000 99.60000000
1930.00000000 99.70000000
1930.00000000 99.70000000
1930.00000000 99.70000000
1930.00000000 99.60000000
1940.00000000 99.60000000
1940.00000000 99.60000000
1940.00000000 99.60000000
1940.00000000 99.50000000
1940.00000000 99.60000000
1950.00000000 99.60000000
1950.00000000 99.70000000
1950.00000000 99.60000000
1950.00000000 99.60000000
1950.00000000 99.60000000
1960.00000000 99.60000000
1960.00000000 99.70000000
1960.00000000 99.70000000
1960.00000000 99.60000000
1960.00000000 99.60000000
1970.00000000 99.60000000
1970.00000000 99.60000000
1970.00000000 99.60000000
1970.00000000 99.70000000
1970.00000000 99.70000000
1970.00000000 99.70000000
1980.00000000 99.70000000
1980.00000000 99.60000000
1980.00000000 99.70000000
1980.00000000 99.70000000
1980.00000000 99.70000000
1990.00000000 99.60000000
1990.00000000 99.60000000
1990.00000000 99.60000000
1990.00000000 99.60000000
1990.00000000 99.60000000
2000.00000000 99.70000000
2000.00000000 99.70000000
2000.00000000 99.60000000
2000.00000000 99.60000000
2000.00000000 99.60000000
2010.00000000 99.70000000
2010.00000000 99.70000000
2010.00000000 99.70000000
2010.00000000 99.60000000
2010.00000000 99.70000000
2020.00000000 99.60000000
2020.00000000 99.60000000
2020.00000000 99.60000000
2020.00000000 99.70000000
2020.00000000 99.70000000
2020.00000000 99.70000000
2030.00000000 99.70000000
2030.00000000 99.70000000
2030.00000000 99.70000000
2030.00000000 99.70000000
2030.00000000 99.70000000
2040.00000000 99.70000000
2040.00000000 99.60000000
2040.00000000 99.60000000
2040.00000000 99.60000000
2040.00000000 99.60000000
2050.00000000 99.70000000
2050.00000000 99.70000000
2050.00000000 99.70000000
2050.00000000 99.70000000
2050.00000000 99.70000000
2060.00000000 99.70000000
2060.00000000 99.70000000
2060.00000000 99.70000000
2060.00000000 99.70000000
2060.00000000 99.60000000
2070.00000000 99.60000000
2070.00000000 99.70000000
2070.00000000 99.70000000
2070.00000000 99.70000000
2070.00000000 99.70000000
2080.00000000 99.60000000
2080.00000000 99.60000000
2080.00000000 99.70000000
2080.00000000 99.70000000
2080.00000000 99.70000000
2080.00000000 99.70000000
2090.00000000 99.70000000
2090.00000000 99.70000000
2090.00000000 99.70000000
2090.00000000 99.60000000
2090.00000000 99.60000000
2100.00000000 99.70000000
2100.00000000 99.70000000
2100.00000000 99.70000000
2100.00000000 99.70000000
2100.00000000 99.70000000
2110.00000000 99.70000000
2110.00000000 99.70000000
2110.00000000 99.70000000
2110.00000000 99.60000000
2110.00000000 99.70000000
2120.00000000 99.70000000
2120.00000000 99.70000000
2120.00000000 99.70000000
2120.00000000 99.70000000
2120.00000000 99.70000000
2130.00000000 99.70000000
2130.00000000 99.70000000
2130.00000000 99.70000000
2130.00000000 99.70000000
2130.00000000 99.70000000
2130.00000000 99.60000000
2140.00000000 99.60000000
2140.00000000 99.60000000
2140.00000000 99.60000000
2140.00000000 99.70000000
2140.00000000 99.70000000
2150.00000000 99.60000000
2150.00000000 99.60000000
2150.00000000 99.60000000
2150.00000000 99.70000000
2150.00000000 99.70000000
2160.00000000 99.60000000
2160.00000000 99.60000000
2160.00000000 99.70000000
2160.00000000 99.70000000
2160.00000000 99.60000000
2170.00000000 99.60000000
2170.00000000 99.60000000
2170.00000000 99.60000000
2170.00000000 99.70000000
2170.00000000 99.70000000
2180.00000000 99.70000000
2180.00000000 99.70000000
2180.00000000 99.70000000
2180.00000000 99.70000000
2180.00000000 99.60000000
2190.00000000 99.60000000
2190.00000000 99.70000000
2190.00000000 99.70000000
2190.00000000 99.70000000
2190.00000000 99.70000000
2190.00000000 99.70000000
2200.00000000 99.60000000
2200.00000000 99.60000000
2200.00000000 99.60000000
2200.00000000 99.70000000
2200.00000000 99.70000000
2210.00000000 99.70000000
2210.00000000 99.70000000
2210.00000000 99.70000000
2210.00000000 99.60000000
2210.00000000 99.70000000
2220.00000000 99.70000000
2220.00000000 99.70000000
2220.00000000 99.70000000
2220.00000000 99.70000000
2220.00000000 99.70000000
2230.00000000 99.70000000
2230.00000000 99.70000000
2230.00000000 99.70000000
2230.00000000 99.70000000
2230.00000000 99.70000000
2240.00000000 99.70000000
2240.00000000 99.70000000
2240.00000000 99.60000000
2240.00000000 99.60000000
2240.00000000 99.70000000
2240.00000000 99.70000000
2250.00000000 99.70000000
2250.00000000 99.70000000
2250.00000000 99.70000000
2250.00000000 99.70000000
2250.00000000 99.70000000
2260.00000000 99.70000000
2260.00000000 99.70000000
2260.00000000 99.70000000
2260.00000000 99.70000000
2260.00000000 99.70000000
2270.00000000 99.70000000
2270.00000000 99.70000000
2270.00000000 99.70000000
2270.00000000 99.70000000
2270.00000000 99.70000000
2280.00000000 99.70000000
2280.00000000 99.70000000
2280.00000000 99.70000000
2280.00000000 99.70000000
2280.00000000 99.70000000
2290.00000000 99.70000000
2290.00000000 99.70000000
2290.00000000 99.70000000
2290.00000000 99.70000000
2290.00000000 99.70000000
2290.00000000 99.70000000
2300.00000000 99.60000000
2300.00000000 99.60000000
2300.00000000 99.60000000
2300.00000000 99.60000000
2300.00000000 99.70000000
2310.00000000 99.70000000
2310.00000000 99.70000000
2310.00000000 99.70000000
2310.00000000 99.70000000
2310.00000000 99.70000000
2320.00000000 99.70000000
2320.00000000 99.70000000
2320.00000000 99.70000000
2320.00000000 99.70000000
2320.00000000 99.80000000
2330.00000000 99.70000000
2330.00000000 99.70000000
2330.00000000 99.70000000
2330.00000000 99.70000000
2330.00000000 99.60000000
2340.00000000 99.70000000
2340.00000000 99.70000000
2340.00000000 99.70000000
2340.00000000 99.70000000
2340.00000000 99.70000000
2350.00000000 99.60000000
2350.00000000 99.60000000
2350.00000000 99.60000000
2350.00000000 99.60000000
2350.00000000 99.70000000
2350.00000000 99.70000000
2360.00000000 99.70000000
2360.00000000 99.60000000
2360.00000000 99.60000000
2360.00000000 99.70000000
2360.00000000 99.70000000
2370.00000000 99.70000000
2370.00000000 99.70000000
2370.00000000 99.70000000
2370.00000000 99.70000000
2370.00000000 99.70000000
2380.00000000 99.60000000
2380.00000000 99.60000000
2380.00000000 99.60000000
2380.00000000 99.70000000
2380.00000000 99.70000000
2390.00000000 99.70000000
2390.00000000 99.70000000
2390.00000000 99.70000000
2390.00000000 99.70000000
2390.00000000 99.70000000
2400.00000000 99.70000000
2400.00000000 99.70000000
2400.00000000 99.70000000
2400.00000000 99.70000000
2400.00000000 99.70000000
2400.00000000 99.70000000
2410.00000000 99.70000000
2410.00000000 99.70000000
2410.00000000 99.70000000
2410.00000000 99.70000000
2410.00000000 99.70000000
2420.00000000 99.70000000
2420.00000000 99.70000000
2420.00000000 99.70000000
2420.00000000 99.70000000
2420.00000000 99.70000000
2430.00000000 99.70000000
2430.00000000 99.70000000
2430.00000000 99.70000000
2430.00000000 99.70000000
2430.00000000 99.70000000
2440.00000000 99.70000000
2440.00000000 99.70000000
2440.00000000 99.70000000
2440.00000000 99.60000000
2440.00000000 99.60000000
2450.00000000 99.70000000
2450.00000000 99.70000000
2450.00000000 99.70000000
2450.00000000 99.70000000
2450.00000000 99.70000000
2460.00000000 99.70000000
2460.00000000 99.70000000
2460.00000000 99.70000000
2460.00000000 99.70000000
2460.00000000 99.70000000
2460.00000000 99.70000000
2470.00000000 99.70000000
2470.00000000 99.70000000
2470.00000000 99.70000000
2470.00000000 99.70000000
2470.00000000 99.70000000
2480.00000000 99.70000000
2480.00000000 99.70000000
2480.00000000 99.60000000
2480.00000000 99.60000000
2480.00000000 99.70000000
2490.00000000 99.60000000
2490.00000000 99.70000000
2490.00000000 99.60000000
2490.00000000 99.60000000
2490.00000000 99.70000000
2500.00000000 99.70000000
2500.00000000 99.70000000
2500.00000000 99.70000000
2500.00000000 99.70000000
2500.00000000 99.70000000
2510.00000000 99.60000000
2510.00000000 99.60000000
2510.00000000 99.60000000
2510.00000000 99.60000000
2510.00000000 99.70000000
2510.00000000 99.70000000
2520.00000000 99.60000000
2520.00000000 99.60000000
2520.00000000 99.70000000
2520.00000000 99.70000000
2520.00000000 99.70000000
2530.00000000 99.70000000
2530.00000000 99.70000000
2530.00000000 99.60000000
2530.00000000 99.60000000
2530.00000000 99.70000000
2540.00000000 99.70000000
2540.00000000 99.70000000
2540.00000000 99.70000000
2540.00000000 99.70000000
2540.00000000 99.70000000
2550.00000000 99.70000000
2550.00000000 99.70000000
2550.00000000 99.70000000
2550.00000000 99.70000000
2550.00000000 99.70000000
2560.00000000 99.60000000
2560.00000000 99.70000000
2560.00000000 99.70000000
2560.00000000 99.70000000
2560.00000000 99.70000000
2560.00000000 99.70000000
2570.00000000 99.70000000
2570.00000000 99.70000000
2570.00000000 99.60000000
2570.00000000 99.60000000
2570.00000000 99.60000000
2580.00000000 99.60000000
2580.00000000 99.60000000
2580.00000000 99.60000000
2580.00000000 99.60000000
2580.00000000 99.60000000
2590.00000000 99.60000000
2590.00000000 99.60000000
2590.00000000 99.60000000
2590.00000000 99.60000000
2590.00000000 99.60000000
2600.00000000 99.70000000
2600.00000000 99.70000000
2600.00000000 99.60000000
2600.00000000 99.60000000
2600.00000000 99.60000000
2610.00000000 99.60000000
2610.00000000 99.60000000
2610.00000000 99.70000000
2610.00000000 99.70000000
2610.00000000 99.70000000
2620.00000000 99.70000000
2620.00000000 99.70000000
2620.00000000 99.70000000
2620.00000000 99.70000000
2620.00000000 99.60000000
2620.00000000 99.60000000
2630.00000000 99.60000000
2630.00000000 99.60000000
2630.00000000 99.70000000
2630.00000000 99.60000000
2630.00000000 99.60000000
2640.00000000 99.60000000
2640.00000000 99.60000000
2640.00000000 99.60000000
2640.00000000 99.60000000
2640.00000000 99.70000000
2650.00000000 99.70000000
2650.00000000 99.60000000
2650.00000000 99.60000000
2650.00000000 99.60000000
2650.00000000 99.60000000
2660.00000000 99.60000000
2660.00000000 99.60000000
2660.00000000 99.60000000
2660.00000000 99.60000000
2660.00000000 99.70000000
2670.00000000 99.60000000
2670.00000000 99.60000000
2670.00000000 99.60000000
2670.00000000 99.60000000
2670.00000000 99.60000000
2670.00000000 99.60000000
2680.00000000 99.50000000
2680.00000000 99.60000000
2680.00000000 99.60000000
2680.00000000 99.60000000
2680.00000000 99.60000000
2690.00000000 99.60000000
2690.00000000 99.60000000
2690.00000000 99.60000000
2690.00000000 99.60000000
2690.00000000 99.60000000
2700.00000000 99.60000000
2700.00000000 99.60000000
2700.00000000 99.60000000
2700.00000000 99.60000000
2700.00000000 99.60000000
2710.00000000 99.60000000
2710.00000000 99.60000000
2710.00000000 99.60000000
2710.00000000 99.60000000
2710.00000000 99.60000000
2720.00000000 99.60000000
2720.00000000 99.60000000
2720.00000000 99.60000000
2720.00000000 99.50000000
2720.00000000 99.60000000
2730.00000000 99.60000000
2730.00000000 99.60000000
2730.00000000 99.60000000
2730.00000000 99.60000000
2730.00000000 99.60000000
2730.00000000 99.50000000
2740.00000000 99.50000000
2740.00000000 99.60000000
2740.00000000 99.60000000
2740.00000000 99.60000000
2740.00000000 99.60000000
2750.00000000 99.60000000
2750.00000000 99.60000000
2750.00000000 99.60000000
2750.00000000 99.60000000
2750.00000000 99.60000000
2760.00000000 99.50000000
2760.00000000 99.60000000
2760.00000000 99.60000000
2760.00000000 99.60000000
2760.00000000 99.60000000
2770.00000000 99.60000000
2770.00000000 99.60000000
2770.00000000 99.60000000
2770.00000000 99.60000000
2770.00000000 99.60000000
2780.00000000 99.60000000
2780.00000000 99.60000000
2780.00000000 99.50000000
2780.00000000 99.50000000
2780.00000000 99.50000000
2780.00000000 99.50000000
2790.00000000 99.50000000
2790.00000000 99.50000000
2790.00000000 99.60000000
2790.00000000 99.50000000
2790.00000000 99.50000000
2800.00000000 99.50000000
2800.00000000 99.40000000
2800.00000000 99.40000000
2800.00000000 99.50000000
2800.00000000 99.50000000
2810.00000000 99.50000000
2810.00000000 99.50000000
2810.00000000 99.40000000
2810.00000000 99.40000000
2810.00000000 99.40000000
2820.00000000 99.40000000
2820.00000000 99.40000000
2820.00000000 99.40000000
2820.00000000 99.40000000
2820.00000000 99.30000000
2830.00000000 99.30000000
2830.00000000 99.20000000
2830.00000000 99.10000000
2830.00000000 98.90000000
2830.00000000 98.80000000
2830.00000000 98.50000000
2840.00000000 98.30000000
2840.00000000 98.30000000
2840.00000000 98.30000000
2840.00000000 98.50000000
2840.00000000 98.50000000
2850.00000000 98.60000000
2850.00000000 98.60000000
2850.00000000 98.60000000
2850.00000000 98.60000000
2850.00000000 98.70000000
2860.00000000 98.80000000
2860.00000000 98.80000000
2860.00000000 98.60000000
2860.00000000 98.40000000
2860.00000000 98.20000000
2870.00000000 98.20000000
2870.00000000 98.20000000
2870.00000000 98.20000000
2870.00000000 98.20000000
2870.00000000 98.20000000
2880.00000000 98.20000000
2880.00000000 98.20000000
2880.00000000 98.20000000
2880.00000000 98.30000000
2880.00000000 98.30000000
2890.00000000 98.40000000
2890.00000000 98.40000000
2890.00000000 98.30000000
2890.00000000 98.30000000
2890.00000000 98.30000000
2890.00000000 98.20000000
2900.00000000 98.10000000
2900.00000000 97.90000000
2900.00000000 97.80000000
2900.00000000 97.60000000
2900.00000000 97.40000000
2910.00000000 97.20000000
2910.00000000 97.00000000
2910.00000000 96.80000000
2910.00000000 96.50000000
2910.00000000 96.30000000
2920.00000000 96.10000000
2920.00000000 95.90000000
2920.00000000 95.90000000
2920.00000000 96.10000000
2920.00000000 96.20000000
2930.00000000 96.40000000
2930.00000000 96.60000000
2930.00000000 96.90000000
2930.00000000 97.20000000
2930.00000000 97.50000000
2940.00000000 97.70000000
2940.00000000 97.80000000
2940.00000000 97.90000000
2940.00000000 97.80000000
2940.00000000 97.60000000
2940.00000000 97.30000000
2950.00000000 97.00000000
2950.00000000 96.90000000
2950.00000000 96.90000000
2950.00000000 96.90000000
2950.00000000 96.90000000
2960.00000000 96.90000000
2960.00000000 96.90000000
2960.00000000 97.10000000
2960.00000000 97.30000000
2960.00000000 97.60000000
2970.00000000 97.90000000
2970.00000000 98.10000000
2970.00000000 98.40000000
2970.00000000 98.60000000
2970.00000000 98.80000000
2980.00000000 98.90000000
2980.00000000 99.10000000
2980.00000000 99.20000000
2980.00000000 99.30000000
2980.00000000 99.30000000
2990.00000000 99.30000000
2990.00000000 99.30000000
2990.00000000 99.30000000
2990.00000000 99.40000000
2990.00000000 99.40000000
3000.00000000 99.40000000
3000.00000000 99.40000000
3000.00000000 99.40000000
3000.00000000 99.40000000
3000.00000000 99.40000000
3000.00000000 99.50000000
3010.00000000 99.50000000
3010.00000000 99.50000000
3010.00000000 99.50000000
3010.00000000 99.50000000
3010.00000000 99.60000000
3020.00000000 99.50000000
3020.00000000 99.50000000
3020.00000000 99.50000000
3020.00000000 99.50000000
3020.00000000 99.50000000
3030.00000000 99.50000000
3030.00000000 99.50000000
3030.00000000 99.50000000
3030.00000000 99.50000000
3030.00000000 99.60000000
3040.00000000 99.60000000
3040.00000000 99.50000000
3040.00000000 99.50000000
3040.00000000 99.40000000
3040.00000000 99.50000000
3050.00000000 99.50000000
3050.00000000 99.50000000
3050.00000000 99.40000000
3050.00000000 99.50000000
3050.00000000 99.50000000
3050.00000000 99.50000000
3060.00000000 99.50000000
3060.00000000 99.60000000
3060.00000000 99.50000000
3060.00000000 99.50000000
3060.00000000 99.40000000
3070.00000000 99.50000000
3070.00000000 99.50000000
3070.00000000 99.50000000
3070.00000000 99.50000000
3070.00000000 99.50000000
3080.00000000 99.50000000
3080.00000000 99.50000000
3080.00000000 99.50000000
3080.00000000 99.40000000
3080.00000000 99.40000000
3090.00000000 99.40000000
3090.00000000 99.40000000
3090.00000000 99.50000000
3090.00000000 99.40000000
3090.00000000 99.40000000
3100.00000000 99.50000000
3100.00000000 99.50000000
3100.00000000 99.40000000
3100.00000000 99.40000000
3100.00000000 99.40000000
3100.00000000 99.40000000
3110.00000000 99.40000000
3110.00000000 99.50000000
3110.00000000 99.50000000
3110.00000000 99.40000000
3110.00000000 99.40000000
3120.00000000 99.40000000
3120.00000000 99.40000000
3120.00000000 99.40000000
3120.00000000 99.40000000
3120.00000000 99.40000000
3130.00000000 99.40000000
3130.00000000 99.40000000
3130.00000000 99.40000000
3130.00000000 99.40000000
3130.00000000 99.30000000
3140.00000000 99.40000000
3140.00000000 99.40000000
3140.00000000 99.40000000
3140.00000000 99.50000000
3140.00000000 99.40000000
3150.00000000 99.30000000
3150.00000000 99.30000000
3150.00000000 99.40000000
3150.00000000 99.40000000
3150.00000000 99.40000000
3160.00000000 99.40000000
3160.00000000 99.40000000
3160.00000000 99.40000000
3160.00000000 99.40000000
3160.00000000 99.40000000
3160.00000000 99.40000000
3170.00000000 99.30000000
3170.00000000 99.30000000
3170.00000000 99.40000000
3170.00000000 99.30000000
3170.00000000 99.30000000
3180.00000000 99.30000000
3180.00000000 99.30000000
3180.00000000 99.30000000
3180.00000000 99.20000000
3180.00000000 99.20000000
3190.00000000 99.10000000
3190.00000000 99.20000000
3190.00000000 99.20000000
3190.00000000 99.20000000
3190.00000000 99.20000000
3200.00000000 99.20000000
3200.00000000 99.20000000
3200.00000000 99.20000000
3200.00000000 99.20000000
3200.00000000 99.30000000
3210.00000000 99.20000000
3210.00000000 99.20000000
3210.00000000 99.10000000
3210.00000000 99.20000000
3210.00000000 99.20000000
3210.00000000 99.20000000
3220.00000000 99.20000000
3220.00000000 99.10000000
3220.00000000 99.20000000
3220.00000000 99.20000000
3220.00000000 99.20000000
3230.00000000 99.20000000
3230.00000000 99.10000000
3230.00000000 99.20000000
3230.00000000 99.10000000
3230.00000000 99.10000000
3240.00000000 99.10000000
3240.00000000 99.20000000
3240.00000000 99.20000000
3240.00000000 99.20000000
3240.00000000 99.20000000
3250.00000000 99.20000000
3250.00000000 99.20000000
3250.00000000 99.20000000
3250.00000000 99.10000000
3250.00000000 99.10000000
3260.00000000 99.10000000
3260.00000000 99.10000000
3260.00000000 99.10000000
3260.00000000 99.10000000
3260.00000000 99.10000000
3270.00000000 99.00000000
3270.00000000 98.90000000
3270.00000000 99.00000000
3270.00000000 99.00000000
3270.00000000 99.00000000
3270.00000000 99.00000000
3280.00000000 99.00000000
3280.00000000 99.10000000
3280.00000000 99.10000000
3280.00000000 99.10000000
3280.00000000 99.10000000
3290.00000000 99.00000000
3290.00000000 99.00000000
3290.00000000 99.00000000
3290.00000000 99.00000000
3290.00000000 99.00000000
3300.00000000 99.00000000
3300.00000000 99.00000000
3300.00000000 99.10000000
3300.00000000 99.20000000
3300.00000000 99.10000000
3310.00000000 99.00000000
3310.00000000 98.90000000
3310.00000000 98.90000000
3310.00000000 99.00000000
3310.00000000 99.00000000
3320.00000000 99.00000000
3320.00000000 99.10000000
3320.00000000 99.10000000
3320.00000000 99.00000000
3320.00000000 99.00000000
3320.00000000 99.00000000
3330.00000000 98.90000000
3330.00000000 98.90000000
3330.00000000 99.00000000
3330.00000000 99.00000000
3330.00000000 98.90000000
3340.00000000 98.90000000
3340.00000000 99.00000000
3340.00000000 99.00000000
3340.00000000 98.90000000
3340.00000000 99.00000000
3350.00000000 99.00000000
3350.00000000 98.90000000
3350.00000000 98.90000000
3350.00000000 98.90000000
3350.00000000 98.90000000
3360.00000000 98.90000000
3360.00000000 98.90000000
3360.00000000 98.80000000
3360.00000000 98.70000000
3360.00000000 98.70000000
3370.00000000 98.70000000
3370.00000000 98.80000000
3370.00000000 98.80000000
3370.00000000 98.80000000
3370.00000000 98.80000000
3370.00000000 98.80000000
3380.00000000 98.90000000
3380.00000000 98.90000000
3380.00000000 98.80000000
3380.00000000 98.80000000
3380.00000000 98.80000000
3390.00000000 98.80000000
3390.00000000 98.80000000
3390.00000000 98.80000000
3390.00000000 98.70000000
3390.00000000 98.70000000
3400.00000000 98.70000000
3400.00000000 98.70000000
3400.00000000 98.70000000
3400.00000000 98.70000000
3400.00000000 98.80000000
3410.00000000 98.80000000
3410.00000000 98.80000000
3410.00000000 98.90000000
3410.00000000 98.90000000
3410.00000000 98.80000000
3420.00000000 98.80000000
3420.00000000 98.90000000
3420.00000000 98.80000000
3420.00000000 98.60000000
3420.00000000 98.70000000
3430.00000000 98.80000000
3430.00000000 98.90000000
3430.00000000 98.80000000
3430.00000000 98.90000000
3430.00000000 98.90000000
3430.00000000 98.90000000
3440.00000000 98.90000000
3440.00000000 98.80000000
3440.00000000 98.80000000
3440.00000000 98.90000000
3440.00000000 98.90000000
3450.00000000 98.80000000
3450.00000000 98.80000000
3450.00000000 98.80000000
3450.00000000 98.90000000
3450.00000000 99.00000000
3460.00000000 98.90000000
3460.00000000 98.90000000
3460.00000000 98.90000000
3460.00000000 98.80000000
3460.00000000 98.90000000
3470.00000000 99.00000000
3470.00000000 99.00000000
3470.00000000 99.00000000
3470.00000000 99.00000000
3470.00000000 99.00000000
3480.00000000 99.00000000
3480.00000000 98.90000000
3480.00000000 98.80000000
3480.00000000 98.80000000
3480.00000000 98.90000000
3480.00000000 99.00000000
3490.00000000 99.00000000
3490.00000000 98.90000000
3490.00000000 98.90000000
3490.00000000 98.90000000
3490.00000000 98.90000000
3500.00000000 99.00000000
3500.00000000 99.00000000
3500.00000000 98.90000000
3500.00000000 98.90000000
3500.00000000 98.90000000
3510.00000000 99.10000000
3510.00000000 99.00000000
3510.00000000 99.00000000
3510.00000000 99.00000000
3510.00000000 99.00000000
3520.00000000 99.00000000
3520.00000000 98.90000000
3520.00000000 99.10000000
3520.00000000 99.10000000
3520.00000000 99.00000000
3530.00000000 98.90000000
3530.00000000 98.90000000
3530.00000000 98.90000000
3530.00000000 99.00000000
3530.00000000 99.00000000
3540.00000000 99.00000000
3540.00000000 99.10000000
3540.00000000 99.20000000
3540.00000000 99.20000000
3540.00000000 99.20000000
3540.00000000 99.10000000
3550.00000000 99.00000000
3550.00000000 99.00000000
3550.00000000 99.00000000
3550.00000000 99.00000000
3550.00000000 99.20000000
3560.00000000 99.20000000
3560.00000000 99.20000000
3560.00000000 99.20000000
3560.00000000 99.20000000
3560.00000000 99.10000000
3570.00000000 98.90000000
3570.00000000 98.90000000
3570.00000000 99.10000000
3570.00000000 99.20000000
3570.00000000 99.10000000
3580.00000000 99.10000000
3580.00000000 99.30000000
3580.00000000 99.30000000
3580.00000000 99.20000000
3580.00000000 99.30000000
3590.00000000 99.10000000
3590.00000000 99.00000000
3590.00000000 99.10000000
3590.00000000 99.20000000
3590.00000000 99.10000000
3590.00000000 99.20000000
3600.00000000 99.30000000
3600.00000000 99.20000000
3600.00000000 99.20000000
3600.00000000 99.30000000
3600.00000000 99.30000000
3610.00000000 99.20000000
3610.00000000 99.10000000
3610.00000000 99.20000000
3610.00000000 99.20000000
3610.00000000 99.20000000
3620.00000000 99.20000000
3620.00000000 99.10000000
3620.00000000 99.10000000
3620.00000000 99.20000000
3620.00000000 99.40000000
3630.00000000 99.40000000
3630.00000000 99.20000000
3630.00000000 99.10000000
3630.00000000 99.30000000
3630.00000000 99.50000000
3640.00000000 99.60000000
3640.00000000 99.60000000
3640.00000000 99.50000000
3640.00000000 99.50000000
3640.00000000 99.50000000
3640.00000000 99.40000000
3650.00000000 99.10000000
3650.00000000 98.90000000
3650.00000000 99.10000000
3650.00000000 99.40000000
3650.00000000 99.40000000
3660.00000000 99.40000000
3660.00000000 99.60000000
3660.00000000 99.60000000
3660.00000000 99.60000000
3660.00000000 99.70000000
3670.00000000 99.60000000
3670.00000000 99.40000000
3670.00000000 99.20000000
3670.00000000 99.40000000
3670.00000000 99.40000000
3680.00000000 99.10000000
3680.00000000 99.40000000
3680.00000000 99.60000000
3680.00000000 99.70000000
3680.00000000 99.60000000
3690.00000000 99.60000000
3690.00000000 99.40000000
3690.00000000 99.20000000
3690.00000000 99.40000000
3690.00000000 99.60000000
3700.00000000 99.70000000
3700.00000000 99.60000000
3700.00000000 99.60000000
3700.00000000 99.60000000
3700.00000000 99.50000000
3700.00000000 99.60000000
3710.00000000 99.60000000
3710.00000000 99.50000000
3710.00000000 99.20000000
3710.00000000 99.30000000
3710.00000000 99.50000000
3720.00000000 99.70000000
3720.00000000 99.60000000
3720.00000000 99.40000000
3720.00000000 99.40000000
3720.00000000 99.40000000
3730.00000000 99.50000000
3730.00000000 99.60000000
3730.00000000 99.50000000
3730.00000000 99.20000000
3730.00000000 99.00000000
3740.00000000 99.00000000
3740.00000000 99.20000000
3740.00000000 99.40000000
3740.00000000 99.30000000
3740.00000000 99.10000000
3750.00000000 99.10000000
3750.00000000 99.20000000
3750.00000000 99.00000000
3750.00000000 99.10000000
3750.00000000 99.30000000
3750.00000000 99.50000000
3760.00000000 99.50000000
3760.00000000 99.50000000
3760.00000000 99.60000000
3760.00000000 99.70000000
3760.00000000 99.60000000
3770.00000000 99.50000000
3770.00000000 99.40000000
3770.00000000 99.50000000
3770.00000000 99.60000000
3770.00000000 99.80000000
3780.00000000 99.80000000
3780.00000000 99.60000000
3780.00000000 99.50000000
3780.00000000 99.60000000
3780.00000000 99.60000000
3790.00000000 99.60000000
3790.00000000 99.70000000
3790.00000000 99.80000000
3790.00000000 99.70000000
3790.00000000 99.70000000
3800.00000000 99.60000000
3800.00000000 99.40000000
3800.00000000 99.40000000
3800.00000000 99.30000000
3800.00000000 99.40000000
3810.00000000 99.50000000
3810.00000000 99.50000000
3810.00000000 99.60000000
3810.00000000 99.60000000
3810.00000000 99.60000000
3810.00000000 99.50000000
3820.00000000 99.30000000
3820.00000000 99.30000000
3820.00000000 99.20000000
3820.00000000 99.30000000
3820.00000000 99.60000000
3830.00000000 99.60000000
3830.00000000 99.60000000
3830.00000000 99.70000000
3830.00000000 99.60000000
3830.00000000 99.40000000
3840.00000000 99.30000000
3840.00000000 99.20000000
3840.00000000 99.30000000
3840.00000000 99.50000000
3840.00000000 99.50000000
3850.00000000 99.60000000
3850.00000000 99.70000000
3850.00000000 99.60000000
3850.00000000 99.20000000
3850.00000000 99.00000000
3860.00000000 99.20000000
3860.00000000 99.40000000
3860.00000000 99.60000000
3860.00000000 99.50000000
3860.00000000 99.40000000
3860.00000000 99.50000000
3870.00000000 99.50000000
3870.00000000 99.60000000
3870.00000000 99.60000000
3870.00000000 99.50000000
3870.00000000 99.50000000
3880.00000000 99.70000000
3880.00000000 99.70000000
3880.00000000 99.50000000
3880.00000000 99.50000000
3880.00000000 99.50000000
3890.00000000 99.40000000
3890.00000000 99.70000000
3890.00000000 99.50000000
3890.00000000 99.40000000
3890.00000000 99.50000000
3900.00000000 99.70000000
3900.00000000 99.60000000
3900.00000000 99.40000000
3900.00000000 99.30000000
3900.00000000 99.30000000
3910.00000000 99.50000000
3910.00000000 99.70000000
3910.00000000 99.80000000
3910.00000000 99.80000000
3910.00000000 99.70000000
3910.00000000 99.70000000
3920.00000000 99.70000000
3920.00000000 99.70000000
3920.00000000 99.60000000
3920.00000000 99.60000000
3920.00000000 99.60000000
3930.00000000 99.60000000
3930.00000000 99.50000000
3930.00000000 99.50000000
3930.00000000 99.50000000
3930.00000000 99.60000000
3940.00000000 99.60000000
3940.00000000 99.70000000
3940.00000000 99.70000000
3940.00000000 99.60000000
3940.00000000 99.50000000
3950.00000000 99.50000000
3950.00000000 99.50000000
3950.00000000 99.60000000
3950.00000000 99.70000000
3950.00000000 99.70000000
3960.00000000 99.70000000
3960.00000000 99.70000000
3960.00000000 99.80000000
3960.00000000 99.80000000
3960.00000000 99.70000000
3970.00000000 99.70000000
3970.00000000 99.70000000
3970.00000000 99.70000000
3970.00000000 99.80000000
3970.00000000 99.90000000
3970.00000000 99.80000000
3980.00000000 99.70000000
3980.00000000 99.70000000
3980.00000000 99.80000000
3980.00000000 99.80000000
3980.00000000 99.80000000
3990.00000000 99.80000000
3990.00000000 99.70000000
3990.00000000 99.70000000
3990.00000000 99.70000000
3990.00000000 99.70000000
4000.00000000 99.70000000
4000.00000000 99.80000000
4000.00000000 99.80000000
4000.00000000 0.00000000
##END=